#K-Path(1/A)         Spin-Up(eV)   Spin-down(eV)
# NKPTS & NBANDS: 100  45
# Band-Index    1
   0.00000    -13.012217    -13.012217
   0.01727    -13.013155    -13.013484
   0.03454    -13.016815    -13.017984
   0.05181    -13.024992    -13.026874
   0.06908    -13.038151    -13.040283
   0.08635    -13.055490    -13.057616
   0.10362    -13.076228    -13.078247
   0.12089    -13.099775    -13.101647
   0.13816    -13.125656    -13.127365
   0.15543    -13.153457    -13.155000
   0.17270    -13.182817    -13.184193
   0.18997    -13.213418    -13.214633
   0.20725    -13.244987    -13.246049
   0.22452    -13.277282    -13.278200
   0.24179    -13.310090    -13.310874
   0.25906    -13.343222    -13.343883
   0.27633    -13.376513    -13.377060
   0.29360    -13.409813    -13.410259
   0.31087    -13.442994    -13.443349
   0.32814    -13.475943    -13.476216
   0.34541    -13.508544    -13.508746
   0.36268    -13.540701    -13.540840
   0.37995    -13.572324    -13.572410
   0.39722    -13.603336    -13.603375
   0.41449    -13.633661    -13.633662
   0.43176    -13.663231    -13.663201
   0.44903    -13.691985    -13.691930
   0.46630    -13.719865    -13.719790
   0.48357    -13.746818    -13.746729
   0.50084    -13.772806    -13.772708
   0.51811    -13.797777    -13.797673
   0.53538    -13.821690    -13.821583
   0.55265    -13.844504    -13.844397
   0.56992    -13.866184    -13.866081
   0.58720    -13.886699    -13.886600
   0.60447    -13.906019    -13.905927
   0.62174    -13.924116    -13.924031
   0.63901    -13.940965    -13.940888
   0.65628    -13.956544    -13.956477
   0.67355    -13.970837    -13.970779
   0.69082    -13.983830    -13.983781
   0.70809    -13.995498    -13.995459
   0.72536    -14.005827    -14.005796
   0.74263    -14.014802    -14.014779
   0.75990    -14.022414    -14.022397
   0.77717    -14.028653    -14.028642
   0.79444    -14.033510    -14.033504
   0.81171    -14.036982    -14.036980
   0.82898    -14.039065    -14.039064
   0.84625    -14.039754    -14.039754
   0.84625    -14.039754    -14.039754
   0.86352    -14.039064    -14.039065
   0.88079    -14.036980    -14.036982
   0.89806    -14.033504    -14.033510
   0.91533    -14.028642    -14.028653
   0.93260    -14.022397    -14.022414
   0.94987    -14.014779    -14.014802
   0.96714    -14.005796    -14.005827
   0.98442    -13.995459    -13.995498
   1.00169    -13.983781    -13.983830
   1.01896    -13.970779    -13.970837
   1.03623    -13.956477    -13.956544
   1.05350    -13.940888    -13.940965
   1.07077    -13.924031    -13.924116
   1.08804    -13.905927    -13.906019
   1.10531    -13.886600    -13.886699
   1.12258    -13.866081    -13.866184
   1.13985    -13.844397    -13.844504
   1.15712    -13.821583    -13.821690
   1.17439    -13.797673    -13.797777
   1.19166    -13.772708    -13.772806
   1.20893    -13.746729    -13.746818
   1.22620    -13.719790    -13.719865
   1.24347    -13.691930    -13.691985
   1.26074    -13.663201    -13.663231
   1.27801    -13.633662    -13.633661
   1.29528    -13.603375    -13.603336
   1.31255    -13.572410    -13.572324
   1.32982    -13.540840    -13.540701
   1.34709    -13.508746    -13.508544
   1.36436    -13.476216    -13.475943
   1.38164    -13.443349    -13.442994
   1.39891    -13.410259    -13.409813
   1.41618    -13.377060    -13.376513
   1.43345    -13.343883    -13.343222
   1.45072    -13.310874    -13.310090
   1.46799    -13.278200    -13.277282
   1.48526    -13.246049    -13.244987
   1.50253    -13.214633    -13.213418
   1.51980    -13.184193    -13.182817
   1.53707    -13.155000    -13.153457
   1.55434    -13.127365    -13.125656
   1.57161    -13.101647    -13.099775
   1.58888    -13.078247    -13.076228
   1.60615    -13.057616    -13.055490
   1.62342    -13.040283    -13.038151
   1.64069    -13.026874    -13.024992
   1.65796    -13.017984    -13.016815
   1.67523    -13.013484    -13.013155
   1.69250    -13.012217    -13.012217
 
# Band-Index    2
   1.69250    -13.012217    -13.012217
   1.67523    -13.012109    -13.012216
   1.65796    -13.011790    -13.012220
   1.64069    -13.011256    -13.012229
   1.62342    -13.010500    -13.012244
   1.60615    -13.009517    -13.012253
   1.58888    -13.008298    -13.012235
   1.57161    -13.006833    -13.012159
   1.55434    -13.005115    -13.011988
   1.53707    -13.003139    -13.011679
   1.51980    -13.000916    -13.011186
   1.50253    -12.998557    -13.010464
   1.48526    -12.996658    -13.009468
   1.46799    -12.995314    -13.008158
   1.45072    -12.993841    -13.006492
   1.43345    -12.992048    -13.004435
   1.41618    -12.989869    -13.001953
   1.39891    -12.987267    -12.999020
   1.38164    -12.984212    -12.995609
   1.36436    -12.980682    -12.991701
   1.34709    -12.976659    -12.987279
   1.32982    -12.972128    -12.982329
   1.31255    -12.967085    -12.976845
   1.29528    -12.961526    -12.970824
   1.27801    -12.955454    -12.964267
   1.26074    -12.948874    -12.957180
   1.24347    -12.941798    -12.949574
   1.22620    -12.934244    -12.941467
   1.20893    -12.926233    -12.932877
   1.19166    -12.917792    -12.923833
   1.17439    -12.908955    -12.914367
   1.15712    -12.899760    -12.904518
   1.13985    -12.890255    -12.894332
   1.12258    -12.880491    -12.883863
   1.10531    -12.870529    -12.873172
   1.08804    -12.860439    -12.862331
   1.07077    -12.850297    -12.851419
   1.05350    -12.840193    -12.840528
   1.03623    -12.830220    -12.829760
   1.01896    -12.820486    -12.819231
   1.00169    -12.811110    -12.809070
   0.98442    -12.802222    -12.799428
   0.96714    -12.793956    -12.790465
   0.94987    -12.786454    -12.782368
   0.93260    -12.779865    -12.775443
   0.91533    -12.774330    -12.771226
   0.89806    -12.769968    -12.768254
   0.88079    -12.766851    -12.766111
   0.86352    -12.764995    -12.764815
   0.84625    -12.764379    -12.764379
   0.84625    -12.764379    -12.764379
   0.82898    -12.764815    -12.764995
   0.81171    -12.766111    -12.766851
   0.79444    -12.768254    -12.769968
   0.77717    -12.771226    -12.774330
   0.75990    -12.775443    -12.779865
   0.74263    -12.782368    -12.786454
   0.72536    -12.790465    -12.793956
   0.70809    -12.799428    -12.802222
   0.69082    -12.809070    -12.811110
   0.67355    -12.819231    -12.820486
   0.65628    -12.829760    -12.830220
   0.63901    -12.840528    -12.840193
   0.62174    -12.851419    -12.850297
   0.60447    -12.862331    -12.860439
   0.58720    -12.873172    -12.870529
   0.56992    -12.883863    -12.880491
   0.55265    -12.894332    -12.890255
   0.53538    -12.904518    -12.899760
   0.51811    -12.914367    -12.908955
   0.50084    -12.923833    -12.917792
   0.48357    -12.932877    -12.926233
   0.46630    -12.941467    -12.934244
   0.44903    -12.949574    -12.941798
   0.43176    -12.957180    -12.948874
   0.41449    -12.964267    -12.955454
   0.39722    -12.970824    -12.961526
   0.37995    -12.976845    -12.967085
   0.36268    -12.982329    -12.972128
   0.34541    -12.987279    -12.976659
   0.32814    -12.991701    -12.980682
   0.31087    -12.995609    -12.984212
   0.29360    -12.999020    -12.987267
   0.27633    -13.001953    -12.989869
   0.25906    -13.004435    -12.992048
   0.24179    -13.006492    -12.993841
   0.22452    -13.008158    -12.995314
   0.20725    -13.009468    -12.996658
   0.18997    -13.010464    -12.998557
   0.17270    -13.011186    -13.000916
   0.15543    -13.011679    -13.003139
   0.13816    -13.011988    -13.005115
   0.12089    -13.012159    -13.006833
   0.10362    -13.012235    -13.008298
   0.08635    -13.012253    -13.009517
   0.06908    -13.012244    -13.010500
   0.05181    -13.012229    -13.011256
   0.03454    -13.012220    -13.011790
   0.01727    -13.012216    -13.012109
   0.00000    -13.012217    -13.012217
 
# Band-Index    3
   0.00000    -12.994358    -12.994358
   0.01727    -12.995556    -12.995207
   0.03454    -12.998242    -12.996999
   0.05181    -13.000395    -12.998389
   0.06908    -13.001217    -12.998965
   0.08635    -13.001104    -12.998993
   0.10362    -13.000400    -12.998757
   0.12089    -12.999262    -12.998442
   0.13816    -12.997757    -12.998124
   0.15543    -12.995913    -12.997773
   0.17270    -12.993740    -12.997295
   0.18997    -12.991238    -12.996492
   0.20725    -12.988406    -12.994691
   0.22452    -12.985238    -12.991730
   0.24179    -12.981727    -12.988232
   0.25906    -12.977866    -12.984336
   0.27633    -12.973648    -12.980062
   0.29360    -12.969071    -12.975410
   0.31087    -12.964129    -12.970377
   0.32814    -12.958823    -12.964964
   0.34541    -12.953152    -12.959167
   0.36268    -12.947119    -12.952988
   0.37995    -12.940733    -12.946435
   0.39722    -12.934002    -12.939515
   0.41449    -12.926939    -12.932240
   0.43176    -12.919559    -12.924623
   0.44903    -12.911884    -12.916687
   0.46630    -12.903939    -12.908454
   0.48357    -12.895748    -12.899949
   0.50084    -12.887347    -12.891206
   0.51811    -12.878769    -12.882261
   0.53538    -12.870060    -12.873158
   0.55265    -12.861267    -12.863946
   0.56992    -12.852447    -12.854683
   0.58720    -12.843666    -12.845437
   0.60447    -12.835004    -12.836295
   0.62174    -12.826553    -12.827367
   0.63901    -12.818414    -12.818773
   0.65628    -12.810669    -12.810591
   0.67355    -12.803364    -12.802846
   0.69082    -12.796534    -12.795563
   0.70809    -12.790222    -12.788790
   0.72536    -12.784473    -12.782577
   0.74263    -12.779332    -12.776980
   0.75990    -12.774757    -12.772055
   0.77717    -12.769466    -12.767855
   0.79444    -12.765097    -12.764438
   0.81171    -12.762079    -12.761882
   0.82898    -12.760320    -12.760286
   0.84625    -12.759741    -12.759741
   0.84625    -12.759741    -12.759741
   0.86352    -12.760286    -12.760320
   0.88079    -12.761882    -12.762079
   0.89806    -12.764438    -12.765097
   0.91533    -12.767855    -12.769466
   0.93260    -12.772055    -12.774757
   0.94987    -12.776980    -12.779332
   0.96714    -12.782577    -12.784473
   0.98442    -12.788790    -12.790222
   1.00169    -12.795563    -12.796534
   1.01896    -12.802846    -12.803364
   1.03623    -12.810591    -12.810669
   1.05350    -12.818773    -12.818414
   1.07077    -12.827367    -12.826553
   1.08804    -12.836295    -12.835004
   1.10531    -12.845437    -12.843666
   1.12258    -12.854683    -12.852447
   1.13985    -12.863946    -12.861267
   1.15712    -12.873158    -12.870060
   1.17439    -12.882261    -12.878769
   1.19166    -12.891206    -12.887347
   1.20893    -12.899949    -12.895748
   1.22620    -12.908454    -12.903939
   1.24347    -12.916687    -12.911884
   1.26074    -12.924623    -12.919559
   1.27801    -12.932240    -12.926939
   1.29528    -12.939515    -12.934002
   1.31255    -12.946435    -12.940733
   1.32982    -12.952988    -12.947119
   1.34709    -12.959167    -12.953152
   1.36436    -12.964964    -12.958823
   1.38164    -12.970377    -12.964129
   1.39891    -12.975410    -12.969071
   1.41618    -12.980062    -12.973648
   1.43345    -12.984336    -12.977866
   1.45072    -12.988232    -12.981727
   1.46799    -12.991730    -12.985238
   1.48526    -12.994691    -12.988406
   1.50253    -12.996492    -12.991238
   1.51980    -12.997295    -12.993740
   1.53707    -12.997773    -12.995913
   1.55434    -12.998124    -12.997757
   1.57161    -12.998442    -12.999262
   1.58888    -12.998757    -13.000400
   1.60615    -12.998993    -13.001104
   1.62342    -12.998965    -13.001217
   1.64069    -12.998389    -13.000395
   1.65796    -12.996999    -12.998242
   1.67523    -12.995207    -12.995556
   1.69250    -12.994358    -12.994358
 
# Band-Index    4
   1.69250    -12.994358    -12.994358
   1.67523    -12.994375    -12.994247
   1.65796    -12.994422    -12.993921
   1.64069    -12.994472    -12.993376
   1.62342    -12.994473    -12.992606
   1.60615    -12.994346    -12.991605
   1.58888    -12.993979    -12.990367
   1.57161    -12.993253    -12.988882
   1.55434    -12.992102    -12.987142
   1.53707    -12.990522    -12.985138
   1.51980    -12.988543    -12.982858
   1.50253    -12.986192    -12.980292
   1.48526    -12.983485    -12.977432
   1.46799    -12.980428    -12.974267
   1.45072    -12.977024    -12.970790
   1.43345    -12.973269    -12.966993
   1.41618    -12.969162    -12.962871
   1.39891    -12.964701    -12.958419
   1.38164    -12.959884    -12.953636
   1.36436    -12.954713    -12.948523
   1.34709    -12.949188    -12.943079
   1.32982    -12.943312    -12.937311
   1.31255    -12.937096    -12.931226
   1.29528    -12.930547    -12.924834
   1.27801    -12.923679    -12.918150
   1.26074    -12.916507    -12.911187
   1.24347    -12.909051    -12.903967
   1.22620    -12.901335    -12.896514
   1.20893    -12.893382    -12.888849
   1.19166    -12.885222    -12.881003
   1.17439    -12.876888    -12.873008
   1.15712    -12.868417    -12.864899
   1.13985    -12.859848    -12.856714
   1.12258    -12.851221    -12.848491
   1.10531    -12.842577    -12.840267
   1.08804    -12.833946    -12.832077
   1.07077    -12.825345    -12.823943
   1.05350    -12.816788    -12.815891
   1.03623    -12.808340    -12.807972
   1.01896    -12.800126    -12.800274
   1.00169    -12.792278    -12.792904
   0.98442    -12.784918    -12.785963
   0.96714    -12.778142    -12.779525
   0.94987    -12.772043    -12.773645
   0.93260    -12.766710    -12.768357
   0.91533    -12.762223    -12.763681
   0.89806    -12.758653    -12.759694
   0.88079    -12.756059    -12.756597
   0.86352    -12.754484    -12.754630
   0.84625    -12.753955    -12.753955
   0.84625    -12.753955    -12.753955
   0.82898    -12.754630    -12.754484
   0.81171    -12.756597    -12.756059
   0.79444    -12.759694    -12.758653
   0.77717    -12.763681    -12.762223
   0.75990    -12.768357    -12.766710
   0.74263    -12.773645    -12.772043
   0.72536    -12.779525    -12.778142
   0.70809    -12.785963    -12.784918
   0.69082    -12.792904    -12.792278
   0.67355    -12.800274    -12.800126
   0.65628    -12.807972    -12.808340
   0.63901    -12.815891    -12.816788
   0.62174    -12.823943    -12.825345
   0.60447    -12.832077    -12.833946
   0.58720    -12.840267    -12.842577
   0.56992    -12.848491    -12.851221
   0.55265    -12.856714    -12.859848
   0.53538    -12.864899    -12.868417
   0.51811    -12.873008    -12.876888
   0.50084    -12.881003    -12.885222
   0.48357    -12.888849    -12.893382
   0.46630    -12.896514    -12.901335
   0.44903    -12.903967    -12.909051
   0.43176    -12.911187    -12.916507
   0.41449    -12.918150    -12.923679
   0.39722    -12.924834    -12.930547
   0.37995    -12.931226    -12.937096
   0.36268    -12.937311    -12.943312
   0.34541    -12.943079    -12.949188
   0.32814    -12.948523    -12.954713
   0.31087    -12.953636    -12.959884
   0.29360    -12.958419    -12.964701
   0.27633    -12.962871    -12.969162
   0.25906    -12.966993    -12.973269
   0.24179    -12.970790    -12.977024
   0.22452    -12.974267    -12.980428
   0.20725    -12.977432    -12.983485
   0.18997    -12.980292    -12.986192
   0.17270    -12.982858    -12.988543
   0.15543    -12.985138    -12.990522
   0.13816    -12.987142    -12.992102
   0.12089    -12.988882    -12.993253
   0.10362    -12.990367    -12.993979
   0.08635    -12.991605    -12.994346
   0.06908    -12.992606    -12.994473
   0.05181    -12.993376    -12.994472
   0.03454    -12.993921    -12.994422
   0.01727    -12.994247    -12.994375
   0.00000    -12.994358    -12.994358
 
# Band-Index    5
   0.00000    -12.254762    -12.254762
   0.01727    -12.254493    -12.254196
   0.03454    -12.253703    -12.252585
   0.05181    -12.252419    -12.250177
   0.06908    -12.250669    -12.247322
   0.08635    -12.248477    -12.244261
   0.10362    -12.245868    -12.241037
   0.12089    -12.242872    -12.237610
   0.13816    -12.239531    -12.233953
   0.15543    -12.235892    -12.230072
   0.17270    -12.232049    -12.226023
   0.18997    -12.228225    -12.221984
   0.20725    -12.224533    -12.218164
   0.22452    -12.220844    -12.214435
   0.24179    -12.217134    -12.210714
   0.25906    -12.213425    -12.207015
   0.27633    -12.209754    -12.203372
   0.29360    -12.206161    -12.199828
   0.31087    -12.202687    -12.196426
   0.32814    -12.199370    -12.193208
   0.34541    -12.196248    -12.190213
   0.36268    -12.193354    -12.187478
   0.37995    -12.190725    -12.185040
   0.39722    -12.188388    -12.182929
   0.41449    -12.186371    -12.181174
   0.43176    -12.184693    -12.179795
   0.44903    -12.183377    -12.178815
   0.46630    -12.182435    -12.178247
   0.48357    -12.181872    -12.178094
   0.50084    -12.181690    -12.178359
   0.51811    -12.181886    -12.179035
   0.53538    -12.182450    -12.180112
   0.55265    -12.183369    -12.181573
   0.56992    -12.184621    -12.183393
   0.58720    -12.186179    -12.185539
   0.60447    -12.188012    -12.187977
   0.62174    -12.190081    -12.190660
   0.63901    -12.192345    -12.193538
   0.65628    -12.194757    -12.196555
   0.67355    -12.197267    -12.199647
   0.69082    -12.199829    -12.202752
   0.70809    -12.202398    -12.205802
   0.72536    -12.204935    -12.208721
   0.74263    -12.207424    -12.211435
   0.75990    -12.209896    -12.213875
   0.77717    -12.212441    -12.215977
   0.79444    -12.215102    -12.217678
   0.81171    -12.217583    -12.218932
   0.82898    -12.219333    -12.219700
   0.84625    -12.219957    -12.219957
   0.84625    -12.219957    -12.219957
   0.86352    -12.219700    -12.219333
   0.88079    -12.218932    -12.217583
   0.89806    -12.217678    -12.215102
   0.91533    -12.215977    -12.212441
   0.93260    -12.213875    -12.209896
   0.94987    -12.211435    -12.207424
   0.96714    -12.208721    -12.204935
   0.98442    -12.205802    -12.202398
   1.00169    -12.202752    -12.199829
   1.01896    -12.199647    -12.197267
   1.03623    -12.196555    -12.194757
   1.05350    -12.193538    -12.192345
   1.07077    -12.190660    -12.190081
   1.08804    -12.187977    -12.188012
   1.10531    -12.185539    -12.186179
   1.12258    -12.183393    -12.184621
   1.13985    -12.181573    -12.183369
   1.15712    -12.180112    -12.182450
   1.17439    -12.179035    -12.181886
   1.19166    -12.178359    -12.181690
   1.20893    -12.178094    -12.181872
   1.22620    -12.178247    -12.182435
   1.24347    -12.178815    -12.183377
   1.26074    -12.179795    -12.184693
   1.27801    -12.181174    -12.186371
   1.29528    -12.182929    -12.188388
   1.31255    -12.185040    -12.190725
   1.32982    -12.187478    -12.193354
   1.34709    -12.190213    -12.196248
   1.36436    -12.193208    -12.199370
   1.38164    -12.196426    -12.202687
   1.39891    -12.199828    -12.206161
   1.41618    -12.203372    -12.209754
   1.43345    -12.207015    -12.213425
   1.45072    -12.210714    -12.217134
   1.46799    -12.214435    -12.220844
   1.48526    -12.218164    -12.224533
   1.50253    -12.221984    -12.228225
   1.51980    -12.226023    -12.232049
   1.53707    -12.230072    -12.235892
   1.55434    -12.233953    -12.239531
   1.57161    -12.237610    -12.242872
   1.58888    -12.241037    -12.245868
   1.60615    -12.244261    -12.248477
   1.62342    -12.247322    -12.250669
   1.64069    -12.250177    -12.252419
   1.65796    -12.252585    -12.253703
   1.67523    -12.254196    -12.254493
   1.69250    -12.254762    -12.254762
 
# Band-Index    6
   1.69250    -12.254762    -12.254762
   1.67523    -12.253520    -12.254157
   1.65796    -12.250078    -12.252578
   1.64069    -12.245484    -12.250489
   1.62342    -12.241617    -12.248209
   1.60615    -12.238995    -12.245821
   1.58888    -12.236574    -12.243294
